  DATOS A

EXPERIMENTO
     #1

PARTE1: (Fig.
    3)          a=R                   a=R/2          a=2R

   Z (cm)       B(mT)          Z (cm) B(mT)   Z (cm) B(mT)
    -20.0        0.43          -20.00 0.39      -22   0.82
    -19.0        0.47          -19.00 0.41      -21   0.87
    -18.0        0.55          -18.00 0.45      -18   0.89
    -17.0        0.62          -17.00 0.54      -17   0.87
    -16.0        0.70          -16.00 0.61      -16   0.87
    -15.0        0.78          -15.00 0.67      -15   0.85
    -14.0        0.84          -14.00 0.73      -14   0.81
    -13.0        0.89          -13.00 0.82      -13   0.79
    -12.0        0.95          -12.00 0.89      -12   0.76
    -11.0        0.97          -11.00 0.96      -11   0.74
    -10.0        0.99          -10.00 1.00      -10   0.73
     -9.0        1.01           -9.00  1.07      -9   0.69
     -8.0        1.02           -8.00  1.12      -8   0.67
     -7.0        1.02           -7.00  1.19      -7   0.65
     -6.0        1.03           -6.00  1.22      -6   0.64
     -5.0        1.03           -5.00  1.28      -5   0.61
     -4.0        1.03           -4.00  1.32      -4   0.60
     -3.0        1.03           -3.00  1.33      -3   0.59
     -2.0        1.03           -2.00  1.34      -2   0.58
     -1.0        1.03           -1.00  1.37      -1   0.58
      0.0        1.03            0.00  1.38       0   0.58
      1.0        1.03            1.00  1.37       1   0.58
      2.0        1.03            2.00  1.34       2   0.58
      3.0        1.02            3.00  1.33       3   0.59
      4.0        1.02            4.00  1.30       4   0.60
      5.0        1.03            5.00  1.26       5   0.61
      6.0        1.02            6.00  1.23       6   0.64
      7.0        1.02            7.00  1.20       7   0.65
      8.0        1.02            8.00  1.16       8   0.67
      9.0        1.01            9.00  1.11       9   0.69
     10.0        0.98           10.00  1.05      10   0.73
     11.0        0.93           11.00  0.98      11   0.74
     12.0        0.92           12.00  0.91      12   0.76
     13.0        0.89           13.00  0.82      13   0.79
     14.0        0.84           14.00  0.72      14   0.81
     15.0        0.79           15.00  0.66      15   0.85
     16.0        0.69           16.00  0.60      16   0.87
     17.0        0.62           17.00  0.55      17   0.87
     18.0        0.54           18.00  0.43      18   0.88
     19.0        0.46           19.00  0.40      21   0.87
     20.0        0.44           20.00  0.38      22   0.85


PARTE 2 (Fig.
     4)
  Z (a=R)        r=0    r=10   r=14   r=16
   (cm)         (mT)    (mT)   (mT)   (mT)
    0.0         1.03    0.99   0.83   0.67
    1.0         1.03    0.99   0.84   0.68
    2.0         1.02    1.00   0.88   0.72
    3.0         1.03    1.02   0.93   0.80
    4.0         1.03    1.05   0.99   0.87
    5.0         1.02    1.10   1.08   1.00
    6.0         1.02    1.13   1.19   1.18
    7.0         1.01    1.16   1.31   1.44
    8.0         1.00    1.18   1.43   1.76
    9.0         0.99    1.19   1.49   2.00
   10.0         0.97    1.19   1.47   1.94
   11.0         0.96    1.17   1.43   1.79
   12.0         0.93    1.11   1.30   1.49
   13.0         0.91    1.05   1.16   1.23
    14.0         0.87   0.98    1.01    0.99
    15.0         0.84   0.91    0.90    0.84
    16.0         0.80   0.84    0.82    0.71
    17.0         0.75   0.77    0.72    0.63
    18.0         0.71   0.70    0.64    0.56
    19.0         0.68   0.64    0.57    0.51
    20.0         0.64   0.59    0.54    0.46


PARTE 3 (Fig.
     5)
  Z (a=R)        r=0    r=10    r=14    r=16
   (cm)         (mT)    (mT)    (mT)    (mT)
    0.0          0.00    0.00    0.01    0.00
    1.0          0.00   -0.01   -0.04   -0.06
    2.0          0.01   -0.03   -0.08   -0.11
    3.0          0.00   -0.03   -0.13   -0.22
    4.0          0.00   -0.04   -0.19   -0.30
    5.0          0.00   -0.04   -0.19   -0.36
    6.0          0.00   -0.03   -0.20   -0.40
    7.0          0.00    0.00   -0.18   -0.39
    8.0          0.00    0.02   -0.10   -0.29
   11.0          0.00    0.13    0.26    0.43
   12.0          0.00    0.16    0.35    0.58
   13.0          0.00    0.19    0.40    0.63
   14.0          0.00    0.21    0.43    0.63
   15.0          0.00    0.22    0.42    0.60
   16.0          0.00    0.23    0.41    0.54
   17.0          0.00    0.22    0.39    0.49
   18.0          0.00    0.21    0.36    0.44
   19.0         -0.01    0.21    0.34    0.41
   20.0          0.00    0.20    0.31    0.36

  PARTE 4
                Bobina Bobina
   r (z=0)        #1      #2
    (cm)         (mT)   (mT)
     0.0         0.00    0.00
     2.0         0.03   -0.02
     4.0         0.06   -0.05
     6.0         0.09   -0.08
     8.0         0.13   -0.12
     10.0        0.17   -0.17
     12.0        0.21   -0.21
     14.0        0.26   -0.28
     16.0        0.31   -0.35
     18.0        0.33   -0.37
     20.0        0.32   -0.39
     22.0        0.31   -0.36
     24.0        0.26   -0.31
     26.0        0.20   -0.27
     28.0        0.15   -0.21
     30.0        0.12   -0.15
     32.0        0.08   -0.12
     34.0        0.05   -0.11
     36.0        0.04   -0.09
     38.0        0.03   -0.07
     40.0        0.02   -0.06
