  DATOS A

EXPERIMENTO
     #1

PARTE1: (Fig.
    3)          a=R                     a=R/2            a=2R

   Z (cm)       B(mT)          Z (cm)   B(mT)   Z (cm)   B(mT)
    -20.0        0.41          -20.00    0.37     -22     0.71
    -19.0        0.45          -19.00    0.39     -21     0.75
    -18.0        0.52          -18.00    0.43     -18     0.77
    -17.0        0.59          -17.00    0.51     -17     0.75
    -16.0        0.67          -16.00    0.58     -16     0.75
    -15.0        0.74          -15.00    0.64     -15     0.73
    -14.0        0.80          -14.00    0.70     -14     0.7
    -13.0        0.85          -13.00    0.78     -13     0.68
    -12.0        0.90          -12.00    0.85     -12     0.66
    -11.0        0.92          -11.00    0.91     -11     0.64
    -10.0        0.94          -10.00    0.95     -10     0.63
     -9.0        0.96           -9.00    1.02      -9     0.6
     -8.0        0.97           -8.00    1.07      -8     0.58
     -7.0        0.97           -7.00    1.13      -7     0.56
     -6.0        0.98           -6.00    1.16      -6     0.55
     -5.0        0.98           -5.00    1.22      -5     0.53
     -4.0        0.98           -4.00    1.26      -4     0.52
     -3.0        0.98           -3.00    1.27      -3     0.51
     -2.0        0.98           -2.00    1.28      -2     0.5
     -1.0        0.98           -1.00    1.30      -1     0.5
      0.0        0.98            0.00    1.31       0     0.5
      1.0        0.98            1.00    1.30       1     0.5
      2.0        0.98            2.00    1.28       2     0.5
      3.0        0.97            3.00    1.27       3     0.51
      4.0        0.97            4.00    1.24       4     0.52
      5.0        0.98            5.00    1.20       5     0.53
      6.0        0.97            6.00    1.17       6     0.55
      7.0        0.97            7.00    1.14       7     0.56
      8.0        0.97            8.00    1.10       8     0.58
      9.0        0.96            9.00    1.06       9     0.6
     10.0        0.93           10.00    1.00      10     0.63
     11.0        0.89           11.00    0.93      11     0.64
     12.0        0.88           12.00    0.87      12     0.66
     13.0        0.85           13.00    0.78      13     0.68
     14.0        0.80           14.00    0.69      14     0.7
     15.0        0.75           15.00    0.63      15     0.73
     16.0        0.66           16.00    0.57      16     0.75
     17.0        0.59           17.00    0.52      17     0.75
     18.0        0.51           18.00    0.41      18     0.76
     19.0        0.44           19.00    0.38      21     0.75
     20.0        0.42           20.00    0.36      22     0.73


PARTE 2 (Fig.
     4)
  Z (a=R)        r=0    r=10   r=14     r=16
   (cm)         (mT)    (mT)   (mT)     (mT)
    0.0         1.01    0.97   0.81     0.66
    1.0         1.01    0.97   0.82     0.67
    2.0         1.00    0.98   0.86     0.71
    3.0         1.01    1.00   0.91     0.78
    4.0         1.01    1.03   0.97     0.85
    5.0         1.00    1.08   1.06     0.98
    6.0         1.00    1.11   1.17     1.16
    7.0         0.99    1.14   1.28     1.41
    8.0         0.98    1.16   1.40     1.73
    9.0         0.97    1.17   1.46     1.96
   10.0         0.95    1.17   1.44     1.90
   11.0         0.94    1.15   1.40     1.75
   12.0         0.91    1.09   1.27     1.46
   13.0         0.89    1.03   1.14     1.21
    14.0      0.85     0.96    0.99    0.97
    15.0      0.82     0.89    0.88    0.82
    16.0      0.78     0.82    0.80    0.70
    17.0      0.74     0.75    0.71    0.62
    18.0      0.70     0.69    0.63    0.55
    19.0      0.67     0.63    0.56    0.50
    20.0      0.63     0.58    0.53    0.45


PARTE 3 (Fig.
     5)
  Z (a=R)      r=0    r=10     r=14    r=16
   (cm)       (mT)    (mT)     (mT)    (mT)
    0.0        0.00    0.00     0.01    0.00
    1.0        0.00   -0.01    -0.04   -0.06
    2.0        0.01   -0.03    -0.08   -0.11
    3.0        0.00   -0.03    -0.13   -0.21
    4.0        0.00   -0.04    -0.18   -0.29
    5.0        0.00   -0.04    -0.18   -0.35
    6.0        0.00   -0.03    -0.19   -0.39
    7.0        0.00    0.00    -0.17   -0.38
    8.0        0.00    0.02    -0.10   -0.28
   11.0        0.00    0.13     0.25    0.42
   12.0        0.00    0.16     0.34    0.56
   13.0        0.00    0.18     0.39    0.61
   14.0        0.00    0.20     0.42    0.61
   15.0        0.00    0.21     0.41    0.58
   16.0        0.00    0.22     0.40    0.52
   17.0        0.00    0.21     0.38    0.48
   18.0        0.00    0.20     0.35    0.43
   19.0       -0.01    0.20     0.33    0.40
   20.0        0.00    0.19     0.30    0.35

  PARTE 4
             Bobina   Bobina
   r (z=0)     #1        #2
    (cm)      (mT)     (mT)
     0.0      0.00      0.00
     2.0      0.04     -0.02
     4.0      0.07     -0.06
     6.0      0.11     -0.10
     8.0      0.17     -0.16
     10.0     0.22     -0.22
     12.0     0.26     -0.26
     14.0     0.32     -0.35
     16.0     0.38     -0.43
     18.0     0.41     -0.47
     20.0     0.40     -0.49
     22.0     0.38     -0.46
     24.0     0.32     -0.38
     26.0     0.25     -0.34
     28.0     0.19     -0.26
     30.0     0.14     -0.19
     32.0     0.10     -0.16
     34.0     0.06     -0.13
     36.0     0.05     -0.11
     38.0     0.04     -0.08
     40.0     0.02     -0.07
