DATOS A

EXPERIMENTO
#1

PARTE1: (Fig.
    3)          a=R              a=R/2          a=2R

    Z (cm)      B(mT)      Z (cm) B(mT)   Z (cm) B(mT)
         -20.00   0.41     -20.00 0.37    -22.00 0.71
         -19.00   0.45     -19.00 0.39    -21.00 0.75
         -18.00   0.52     -18.00 0.43    -18.00 0.77
         -17.00   0.59     -17.00 0.51    -17.00 0.75
         -16.00   0.67     -16.00 0.58    -16.00 0.75
         -15.00   0.74     -15.00 0.64    -15.00 0.73
         -14.00   0.80     -14.00 0.70    -14.00 0.70
         -13.00   0.85     -13.00 0.78    -13.00 0.68
         -12.00   0.90     -12.00 0.85    -12.00 0.66
         -11.00   0.92     -11.00 0.91    -11.00 0.64
         -10.00   0.94     -10.00 0.95    -10.00 0.63
          -9.00   0.96      -9.00 1.02     -9.00 0.60
          -8.00   0.97      -8.00 1.07     -8.00 0.58
          -7.00   0.97      -7.00 1.13     -7.00 0.56
          -6.00   0.98      -6.00 1.16     -6.00 0.55
          -5.00   0.98      -5.00 1.22     -5.00 0.53
          -4.00   0.98      -4.00 1.26     -4.00 0.52
          -3.00   0.98      -3.00 1.27     -3.00 0.51
          -2.00   0.98      -2.00 1.28     -2.00 0.50
          -1.00   0.98      -1.00 1.30     -1.00 0.50
           0.00   0.98        0.00 1.31      0.00 0.50
           1.00   0.98        1.00 1.30      1.00 0.50
           2.00   0.98        2.00 1.28      2.00 0.50
           3.00   0.97        3.00 1.27      3.00 0.51
           4.00   0.97        4.00 1.24      4.00 0.52
           5.00   0.98        5.00 1.20      5.00 0.53
           6.00   0.97        6.00 1.17      6.00 0.55
           7.00   0.97        7.00 1.14      7.00 0.56
           8.00   0.97        8.00 1.10      8.00 0.58
           9.00   0.96        9.00 1.06      9.00 0.60
          10.00   0.93      10.00 1.00     10.00 0.63
          11.00   0.89      11.00 0.93     11.00 0.64
          12.00   0.88      12.00 0.87     12.00 0.66
          13.00   0.85      13.00 0.78     13.00 0.68
          14.00   0.80      14.00 0.69     14.00 0.70
          15.00   0.75      15.00 0.63     15.00 0.73
          16.00   0.66      16.00 0.57     16.00 0.75
          17.00   0.59      17.00 0.52     17.00 0.75
          18.00   0.51      18.00 0.41     18.00 0.76
          19.00   0.44      19.00 0.38     21.00 0.75
          20.00   0.42      20.00 0.36     22.00 0.73


PARTE 2 (Fig.
4)
   Z (a=R)       r=0   r=10 r=14 r=16
    (cm)        (mT) (mT) (mT) (mT)
           0.00   1.06   1.02 0.85 0.69
           1.00   1.06   1.02 0.86 0.70
           2.00   1.05   1.03 0.90 0.75
           3.00   1.06   1.05 0.96 0.82
           4.00   1.06   1.08 1.02 0.89
           5.00   1.05   1.13 1.11 1.03
           6.00   1.05   1.17 1.23 1.22
           7.00   1.04   1.20 1.34 1.48
           8.00   1.03   1.22 1.47 1.82
           9.00   1.02   1.23 1.53 2.06
         10.00    1.00   1.23 1.51 1.99
         11.00    0.99   1.21 1.47 1.84
         12.00    0.96   1.14 1.33 1.53
         13.00    0.93   1.08 1.20 1.27
          14.00     0.89     1.01    1.04   1.02
          15.00     0.86     0.93    0.92   0.86
          16.00     0.82     0.86    0.84   0.73
          17.00     0.78     0.79    0.75   0.65
          18.00     0.73     0.72    0.66   0.58
          19.00     0.70     0.66    0.59   0.53
          20.00     0.66     0.61    0.56   0.47


PARTE 3 (Fig.
5)
   Z (a=R)       r=0   r=10         r=14 r=16
    (cm)        (mT) (mT)           (mT) (mT)
           0.00   0.00   0.00         0.01 0.00
           1.00   0.00 -0.01         -0.04 -0.06
           2.00   0.01 -0.03         -0.08 -0.11
           3.00   0.00 -0.03         -0.13 -0.21
           4.00   0.00 -0.04         -0.18 -0.30
           5.00   0.00 -0.04         -0.18 -0.36
           6.00   0.00 -0.03         -0.19 -0.40
           7.00   0.00   0.00        -0.17 -0.39
           8.00   0.00   0.02        -0.10 -0.29
         11.00    0.00   0.13         0.26 0.43
         12.00    0.00   0.16         0.35 0.57
         13.00    0.00   0.18         0.40 0.62
         14.00    0.00   0.20         0.43 0.62
         15.00    0.00   0.21         0.42 0.59
         16.00    0.00   0.22         0.41 0.53
         17.00    0.00   0.21         0.39 0.49
         18.00    0.00   0.20         0.36 0.44
         19.00 -0.01     0.20         0.34 0.41
         20.00    0.00   0.19         0.31 0.36

PARTE 4
                  Bobina   Bobina
    r (z=0)         #1        #2
     (cm)          (mT)     (mT)
      0.00         0.00      0.00
      2.00         0.03     -0.02
      4.00         0.06     -0.05
      6.00         0.09     -0.08
      8.00         0.14     -0.13
     10.00         0.18     -0.18
     12.00         0.22     -0.22
     14.00         0.27     -0.29
     16.00         0.32     -0.36
     18.00         0.34     -0.39
     20.00         0.33     -0.41
     22.00         0.32     -0.38
     24.00         0.27     -0.32
     26.00         0.21     -0.28
     28.00         0.16     -0.22
     30.00         0.12     -0.16
     32.00         0.08     -0.13
     34.00         0.05     -0.11
     36.00         0.04     -0.09
     38.00         0.03     -0.07
     40.00         0.02     -0.06
